# Energy of the simulation (kJ/mol)
# Step Potential Kinetic Total
1 -3647.8134039898828 3741.008148861113 93.19474487123027
2 -3649.7106714075776 3739.495380893991 89.78470948641338
3 -3650.8086147387826 3736.9212319534827 86.11261721470018
4 -3649.1761702995486 3733.2816649355314 84.10549463598288
5 -3645.9050050218834 3728.574633553853 82.66962853196928
6 -3641.3880929594466 3722.8013169224027 81.41322396295641
7 -3635.4481683243835 3715.9640400514427 80.51587172705898
8 -3628.104642939451 3708.065851819236 79.96120887978522
9 -3619.6225407261077 3699.1107136345445 79.48817290843664
10 -3609.97406137037 3689.1034614676946 79.12940009732488
11 -3599.279061842817 3678.0497500839037 78.77068824108699
12 -3587.4462946445965 3665.956168257549 78.50987361295289
13 -3574.5483341598615 3652.8300872092395 78.28175304937817
14 -3560.4956883929717 3638.6799529540945 78.18426456112275
15 -3545.5100014648556 3623.5152458700695 78.00524440521387
16 -3529.422408492948 3607.346497412943 77.92408891999483
17 -3512.1959255705356 3590.1857674064554 77.98984183592023
18 -3494.0716700295056 3572.045899981198 77.97422995169245
19 -3474.9657578751435 3552.940704721597 77.97494684645328
20 -3454.731006864086 3532.8862286220397 78.15522175795347
21 -3433.4829095672935 3511.900010783675 78.41710121638188
22 -3411.1747313228666 3490.000978649806 78.82624732693893
23 -3388.25133978857 3467.2091321093694 78.95779232079944
24 -3364.065593876865 3443.546720814113 79.48112693724785
25 -3338.8871579977863 3419.0385844462003 80.15142644841383
26 -3313.230711454745 3393.7099427887692 80.47923133402448
27 -3286.699549947058 3367.5882358558647 80.88868590880656
28 -3259.2262292438627 3340.7038582940113 81.47762905014858
29 -3231.0387285586617 3313.089284808138 82.05055624947641
30 -3202.073909286887 3284.779328710553 82.70541942366567
31 -3172.3858135042165 3255.81124639937 83.42543289515353
32 -3142.111720731798 3226.2246793980858 84.11295866628814
33 -3111.2447930894687 3196.0618051672077 84.81701207773862
34 -3080.0416857648224 3165.3671533623856 85.32546759756323
35 -3048.0443780392216 3134.1886211307 86.14424309147876
36 -3015.743777597236 3102.576516178186 86.83273858094996
37 -2983.0782780050517 3070.583380582204 87.50510257715243
38 -2950.0546366943126 3038.264706107264 88.2100694129512
39 -2916.909883743981 3005.678366555823 88.76848281184218
40 -2883.4438251016672 2972.8851821767107 89.44135707504348
41 -2850.0625466516763 2939.9484383782815 89.88589172660498
42 -2816.587047522028 2906.9338295059465 90.34678198391867
43 -2783.003947004302 2873.9096975670136 90.90575056271186
44 -2749.44861131994 2840.946136578165 91.49752525822468
45 -2716.139621109737 2808.114779524584 91.97515841484639
46 -2682.8084778701336 2775.4896194001844 92.68114153005064
47 -2649.8234834108207 2743.145832866632 93.32234945581135
48 -2617.3752034418108 2711.15904177325 93.78383833143899
49 -2585.409201453989 2679.6056046943418 94.19640324035248
50 -2553.904569539518 2648.56253827299 94.65796873347185
51 -2522.9544658600034 2618.106752806535 95.15228694653167
52 -2492.5865737043305 2588.314699388247 95.72812568391646
53 -2463.2194166888603 2559.262161578383 96.04274488952292
54 -2434.47088114193 2531.0238685436143 96.55298740168372
55 -2406.658218497721 2503.672457554365 97.01423905664424
56 -2379.80263479758 2477.2780295079274 97.47539471034733
57 -2353.89077141851 2451.9086874423565 98.0179160238465
58 -2329.1181652804835 2427.6295028019076 98.51133752142425
59 -2305.4648227559614 2404.501931800066 99.03710904410444
60 -2283.0864741971036 2382.583724341925 99.49725014482134
61 -2261.938684342407 2361.9285906178334 99.98990627542621
62 -2242.250345728286 2342.5856526608814 100.33530693259515
63 -2223.756168714793 2324.5996867089048 100.84351799411162
64 -2206.7570226816597 2308.010661334421 101.25363865276131
65 -2191.238193762115 2292.8527836117005 101.61458984958587
66 -2177.3921421752125 2279.155094804867 101.76295262965408
67 -2164.900248660948 2266.9416590433816 102.04141038243347
68 -2153.993062480148 2256.2309607495345 102.23789826938669
69 -2144.6343588743835 2247.0359503703194 102.40159149593589
70 -2136.750311183898 2239.3641868971936 102.61387571329621
71 -2130.375376069648 2233.2176162848427 102.84224021519447
72 -2125.3762248292783 2228.593214631058 103.21698980177959
73 -2122.0708382996754 2225.48293826882 103.4120999691448
74 -2120.2829048544904 2223.8734798013634 103.59057494687285
75 -2119.9617595279283 2223.746668301698 103.7849087737692
76 -2121.100836094289 2225.0798271635567 103.9789910692678
77 -2123.722403433111 2227.8463098865163 104.123906453405
78 -2127.665396234896 2232.015514127453 104.35011789255722
79 -2133.1396433078994 2237.5527343507633 104.41309104286411
80 -2139.9437557722717 2244.419533622547 104.47577785027568
81 -2147.9056037201676 2252.574427076211 104.66882335604345
82 -2157.030062719593 2261.9733572305427 104.94329451094991
83 -2167.5312251720957 2272.5694248610616 105.03819968896588
84 -2179.147635105205 2284.3132726297395 105.1656375245344
85 -2191.8282675344135 2297.1538887676097 105.3256212331964
86 -2205.504095517143 2311.038530781557 105.53443526441377
87 -2220.1211484790033 2325.9131285598523 105.79198008084931
88 -2235.770792767891 2341.7224798088328 105.95168704094161
89 -2252.462197624816 2358.4104175519833 105.9482199271674
90 -2269.8289706334076 2375.920483344836 106.09151271142905
91 -2287.895966879023 2394.196104063751 106.3001371847283
92 -2306.9162584495616 2413.180236734862 106.26397828530037
93 -2326.457285666831 2432.8157867701225 106.35850110329157
94 -2346.381257102765 2453.0464944393216 106.66523733655617
95 -2367.023999236797 2473.816566336987 106.79256710018977
96 -2388.1996597124316 2495.070553157422 106.87089344499026
97 -2409.723330477587 2516.7540845338112 107.03075405622452
98 -2431.7045853608906 2538.813863579463 107.10927821857221
99 -2453.7974219596317 2561.1974904643594 107.40006850472774
100 -2476.3101085271055 2583.854138364478 107.54402983737225
101 -2499.06252467908 2606.734320832356 107.67179615327599
102 -2521.9251552471083 2629.790001160476 107.86484591336786
103 -2544.9333211600997 2652.9750052242407 108.04168406414112
104 -2567.9609119643187 2676.244965600107 108.28405363578875
105 -2591.3733785209747 2699.5571012490054 108.1837227280311
106 -2614.5576298567203 2722.8696282633755 108.31199840665482
107 -2637.783934690956 2746.142666667401 108.35873197644497
108 -2660.9655478847553 2769.3386386751363 108.37309079038054
109 -2683.985642537907 2792.4219575103757 108.43631497246872
110 -2706.8429294477774 2815.359126662472 108.51619721469484
111 -2729.3922826823164 2838.118734441866 108.72645175954985
112 -2751.7336485987607 2860.670733646473 108.93708504771242
113 -2774.035011411858 2882.9868279888447 108.95181657698689
114 -2796.1070243668883 2905.0412318527856 108.93420748589728
115 -2817.811385700555 2926.809620142088 108.99823444153309
116 -2839.239519787509 2948.269300470608 109.02978068309885
117 -2860.240393964193 2969.399696730299 109.15930276610584
118 -2880.9258738319854 2990.1823719224344 109.25649809044889
119 -2901.296457988702 3010.600993799167 109.30453581046538
120 -2921.2219192623415 3030.6401769459612 109.41825768361964
121 -2940.6072961063373 3050.286189146702 109.67889304036447
122 -2959.620691089983 3069.5275725588476 109.90688146886417
123 -2978.4478394213756 3088.3543477546305 109.9065083332548
124 -2996.5745446413166 3106.7582636426514 110.18371900133484
125 -3014.369343047155 3124.7323386006606 110.36299555350551
126 -3031.614465309952 3142.271159072446 110.65669376249431
127 -3048.4046598994014 3159.3711399094523 110.96648001005096
128 -3064.94865476525 3176.029477314666 111.08082254941598
129 -3080.8701605535225 3192.2447928081815 111.37463225465915
130 -3096.41431641901 3208.017526238138 111.6032098191279
131 -3111.468451358221 3223.3494008438283 111.88094948560818
132 -3126.2960542869437 3238.242571309523 111.94651702257931
133 -3140.622810151514 3252.7002300343465 112.07741988283232
134 -3154.6986123692614 3266.727580303778 112.02896793451667
135 -3168.2522884586456 3280.3306361307204 112.07834767207488
136 -3181.208742791831 3293.516147739356 112.30740494752479
137 -3193.8852461669285 3306.291234089672 112.40598792274328
138 -3206.0124945257567 3318.6638306252735 112.65133609951693
139 -3217.697398692375 3330.6431838836147 112.94578519124008
140 -3229.031410873776 3342.2389485657086 113.20753769193259
141 -3240.122472496321 3353.4611041313638 113.33863163504277
142 -3250.7192201519774 3364.3197993655913 113.600579213614
143 -3261.1102238364274 3374.8257174539385 113.71549361751102
144 -3271.1428775840855 3384.9895849714085 113.84670738732302
145 -3281.105727840824 3394.8224834608545 113.7167556200304
146 -3290.4551131503854 3404.3357795571924 113.88066640680678
147 -3299.626432797333 3413.5403904364935 113.91395763916042
148 -3308.4347285541685 3422.4472717083227 114.01254315415397
149 -3316.7437724174706 3431.066966820794 114.32319440332313
150 -3325.0700077567335 3439.410023790161 114.34001603342742
151 -3333.015875903988 3447.4868890800158 114.47101317602728
152 -3340.5422663800136 3455.3073680063985 114.76510162638503
153 -3347.9359243287918 3462.8809962570313 114.9450719282396
154 -3355.1244764767457 3470.216907458108 115.09243098136224
155 -3362.1651523329765 3477.3234080622433 115.15825572926684
156 -3369.0005970871243 3484.2082519677488 115.20765488062449
157 -3375.3936092423596 3490.8791056992554 115.48549645689587
158 -3381.792081269836 3497.3431373582807 115.55105608844457
159 -3388.1208760265795 3503.6070357626786 115.48615973609864
160 -3393.9952695235975 3509.6773384481767 115.68206892457924
161 -3399.92682830933 3515.5602921193877 115.63346381005732
162 -3405.5627817029203 3521.261863278631 115.69908157571074
163 -3411.006695797571 3526.787686058457 115.7809902608861
164 -3416.264723118286 3532.14378752264 115.87906440435434
165 -3421.2122331542096 3537.336378639448 116.12414548523832
166 -3426.2467540760713 3542.3710353530764 116.1242812770055
167 -3430.9167335848565 3547.2533774972194 116.33664391236286
168 -3435.7997000259566 3551.989715356099 116.19001533014236
169 -3440.281987326638 3556.586611808606 116.30462448196819
170 -3444.729280981365 3561.050763401841 116.32148242047596
171 -3449.0513850974094 3565.3894767818765 116.33809168446682
172 -3453.075607847416 3569.6100257529615 116.5344179055456
173 -3457.0056800454463 3573.720062451487 116.71438240604077
174 -3460.752280474696 3577.7279006411914 116.97562016649542
175 -3464.5184092318095 3581.6412151159384 117.1228058841289
176 -3468.3123178343994 3585.468196241903 117.15587840750341
177 -3471.9308388946197 3589.2178470181443 117.28700812352488
178 -3475.3836916176956 3592.89950857044 117.51581695274415
179 -3479.0060835851873 3596.5225611713267 117.51647758613889
180 -3482.399580123846 3600.0960464687155 117.69646634486948
181 -3485.80159889688 3603.6290122905775 117.82741339369748
182 -3489.123440768258 3607.1309776313155 118.00753686305728
183 -3492.668577723351 3610.6113920346534 117.94281431130237
184 -3495.923642726232 3614.0788714417276 118.15522871549558
185 -3499.4351183509975 3617.541943327962 118.10682497696439
186 -3502.8036868778736 3621.008837155699 118.20515027782567
187 -3506.281583261407 3624.4871552473533 118.20557198594602
188 -3509.550723298403 3627.9848012692514 118.4340779708481
189 -3512.9605640083064 3631.5091592333392 118.54859522503284
190 -3516.5501380577102 3635.066284359439 118.5161463017289
191 -3519.9985922380606 3638.6618280759462 118.66323583788576
192 -3523.4255618166285 3642.3010679221748 118.87550610554636
193 -3526.868599221025 3645.988896977322 119.1202977562968
194 -3530.364412778309 3649.7295555425308 119.36514276422143
195 -3534.0309013919 3653.5266580321177 119.49575664021756
196 -3537.6590839872893 3657.3833338700915 119.72424988280244
197 -3541.479642492809 3661.3018796500046 119.82223715719547
198 -3545.2500958027344 3665.284337483403 120.0342416806685
199 -3549.135187475024 3669.3323754960775 120.19718802105336
200 -3553.184996811957 3673.4472983872533 120.26230157529672
201 -3557.286091031009 3677.629984345917 120.34389331490752
202 -3561.47162309448 3681.880733925404 120.40911083092388
203 -3565.7583105451636 3686.1999425542676 120.4416320091043
204 -3569.9014267304374 3690.587631567458 120.68620483702058
205 -3574.2435284314342 3695.0438936772384 120.80036524580402
206 -3578.719816065951 3699.569142349292 120.84932628334118
207 -3583.216300182299 3704.1633388994514 120.94703871715245
208 -3587.7823065635357 3708.8270968593024 121.04479029576665
209 -3592.418457453629 3713.560975996548 121.14251854291908
210 -3597.140719085263 3718.3647517669106 121.22403268164811
211 -3601.868162451126 3723.2388259075547 121.37066345642863
212 -3606.5683399639915 3728.1839014787993 121.61556151480781
213 -3611.4057856829245 3733.200886798441 121.79510111551626
214 -3616.283679128964 3738.2909384421587 122.0072593131942
215 -3621.26815813579 3743.454865625166 122.18670748937588
216 -3626.425253265247 3748.693512061 122.26825879575271
217 -3631.6426745078193 3754.008940541891 122.3662660340718
218 -3637.036540228959 3759.402798888916 122.36625865995715
219 -3642.3141447408802 3764.8763650167098 122.56222027582959
220 -3648.0164412526706 3770.4317951639114 122.41535391124101
221 -3653.4270499868526 3776.0708710063495 122.64382101949677
222 -3659.069529355661 3781.795011309945 122.72548195428378
223 -3664.7007574378413 3787.605696456934 122.90493901909251
224 -3670.322007134248 3793.5043643659274 123.18235723167952
225 -3676.0652773393676 3799.492395169178 123.4271178298095
226 -3682.0783230200336 3805.570863376602 123.49254035656855
227 -3687.986631864268 3811.7403198056886 123.75368794142074
228 -3694.0840546765085 3818.001008704811 123.91695402830243
229 -3700.3056043031856 3824.3528870215514 124.04728271836557
230 -3706.633949347569 3830.7954148060476 124.16146545847853
231 -3712.905098434528 3837.3274831841654 124.42238474963749
232 -3719.313093742707 3843.947394567427 124.63430082471973
233 -3725.806954057209 3850.6530877650966 124.84613370788756
234 -3732.253307303489 3857.4418163756823 125.18850907219434
235 -3738.8450836784864 3864.3105607960474 125.46547711756095
236 -3745.4962051783637 3871.2551318892156 125.7589267108519
237 -3752.429816415327 3878.2699276770677 125.84011126174079
238 -3759.346507305186 3885.3494049941264 126.0028976889403
239 -3766.2238080097873 3892.487372751297 126.2635647415094
240 -3773.446300703975 3899.676772740845 126.2304720368699
241 -3780.3376510066187 3906.9101707414306 126.57251973481175
242 -3787.3630416530586 3914.1796301721383 126.81658851907991
243 -3794.5788195333876 3921.4762182438803 126.89739871049288
244 -3801.779417940556 3928.790283625549 127.01086568499291
245 -3808.9062974795797 3936.1121498001917 127.20585232061171
246 -3816.161173425376 3943.4316876477587 127.27051422238274
247 -3823.4358641659264 3950.7381011962543 127.30223703032824
248 -3830.5065726916077 3958.020077364933 127.51350467332514
249 -3837.5903368532827 3965.2660769921536 127.67574013887095
250 -3844.724235771557 3972.46450773975 127.74027196819371
251 -3851.668406517877 3979.6037240746336 127.93531755675667
252 -3858.6231349577142 3986.6719670496227 128.04883209190876
253 -3865.4786003521876 3993.657018289292 128.17841793710457
254 -3872.254459148811 4000.5463323935846 128.29187324477377
255 -3878.922616628948 4007.3279589790286 128.40534235008045
256 -3885.4059799610154 4013.9899390358487 128.58395907483333
257 -3891.643145473429 4020.5200811682107 128.87693569478188
258 -3897.704422449256 4026.9069533489824 129.20253089972618
259 -3903.610856520776 4033.1390438243407 129.52818730356472
260 -3909.5959967896974 4039.2049800316954 129.60898324199778
261 -3915.534754749665 4045.0940601079137 129.5593053582487
262 -3921.0251637941888 4050.795857953078 129.77069415888946
263 -3926.4001379247957 4056.3005469260906 129.90040900129475
264 -3931.601318732197 4061.59902949826 129.99771076606308
265 -3936.4405318391055 4066.682328620649 130.2417967815438
266 -3941.1702860019695 4071.5421966173963 130.37191061542646
267 -3945.4573389189627 4076.17130425268 130.71396533371706
268 -3949.6700099951117 4080.5629381104 130.89292811528847
269 -3953.704550429088 4084.711151645303 131.00660121621482
270 -3957.474104906404 4088.610923228197 131.13681832179304
271 -3960.991506796375 4092.258403496816 131.26689670044087
272 -3964.318896675076 4095.650621419516 131.3317247444401
273 -3967.241876276049 4098.7854871567215 131.54361088067265
274 -3969.889961373754 4101.66191980397 131.7719584302161
275 -3972.3940290932296 4104.280122320476 131.88609322724628
276 -3974.6902039722017 4106.641534788714 131.9513308165129
277 -3976.617429479206 4108.748388187473 132.13095870826743
278 -3978.358913074463 4110.604226657626 132.24531358316284
279 -3979.8210146732567 4112.213465267648 132.3924505943913
280 -3980.8953552821918 4113.581649281084 132.68629399889173
281 -3981.816500366011 4114.715226269115 132.89872590310415
282 -3982.5590405400844 4115.621473878805 133.0624333387203
283 -3983.1153842774356 4116.309083164211 133.19369888677565
284 -3983.543619295441 4116.7867464692 133.2431271737583
285 -3983.7549629534124 4117.064041365851 133.309078412439
286 -3983.3852960949457 4117.151897682441 133.7666015874948
287 -3983.0656517508132 4117.061221456721 133.995569705908
288 -3982.4482977200664 4116.803523992907 134.3552262728399
289 -3981.887988687859 4116.390652966532 134.50266427867297
290 -3981.184371241497 4115.834498056014 134.65012681451682
291 -3980.4309988010723 4115.147022858468 134.7160240573953
292 -3979.5745822849617 4114.340369599614 134.76578731465256
293 -3978.464831726102 4113.427089634671 134.9622579085688
294 -3977.3422384344403 4112.419325141287 135.07708670684661
295 -3976.1042274140486 4111.32873120277 135.22450378872102
296 -3974.778010555487 4110.166192498792 135.38818194330517
297 -3973.309028368786 4108.9426519170775 135.63362354829113
298 -3971.887594438124 4107.668533960889 135.78093952276538
299 -3970.359656132232 4106.353267360412 135.9936112281804
300 -3968.7839403429716 4105.006495321082 136.22255497811085
301 -3966.957467871771 4103.637157603435 136.67968973166475
302 -3965.45884460177 4102.25302949378 136.7941848920094
303 -3963.903616743136 4100.861199616186 136.95758287305048
304 -3962.3317435204153 4099.468956577374 137.1372130569587
305 -3960.5701691979775 4098.083029862127 137.51286066414858
306 -3959.1138797003714 4096.708621874531 137.59474217415908
307 -3957.5752934722364 4095.34969189535 137.77439842311406
308 -3956.023342424004 4094.009920099334 137.9865776753301
309 -3954.559467750377 4092.6931064084583 138.13363865808122
310 -3953.154306566621 4091.402185117626 138.247878551005
311 -3951.6959423859466 4090.1396110150663 138.44366862911966
312 -3950.235062858153 4088.9072759279425 138.67221306978917
313 -3948.7896482390634 4087.7067908158037 138.9171425767404
314 -3947.4104589755184 4086.539594160751 139.12913518523277
315 -3946.1469268043975 4085.4065100845683 139.2595832801707
316 -3944.8360354048095 4084.307771271 139.4717358661908
317 -3943.494339562289 4083.2434706884883 139.74913112619913
318 -3942.2365716314944 4082.21406439791 139.97749276641565
319 -3941.177289796462 4081.2197365640445 140.04244676758282
320 -3940.0220434148287 4080.2601625842753 140.23811916944717
321 -3938.868172243211 4079.33462469646 140.46645245324927
322 -3937.91080863031 4078.4424665594747 140.5316579291645
323 -3936.7252092622293 4077.583195206879 140.85798594464944
324 -3935.7352374226875 4076.756160242757 141.0209228200694
325 -3934.7601098348273 4075.960461738293 141.2003519034654
326 -3933.782796033394 4075.195037692816 141.41224165942245
327 -3932.8508176782734 4074.4586605485515 141.60784287027818
328 -3931.995303344745 4073.7499751756272 141.75467183088188
329 -3931.215227641478 4073.06758427692 141.85235663544205
330 -3930.329693549588 4072.4104510779794 142.08075752839127
