# Energy of the simulation (kJ/mol)
# Step Potential Kinetic Total
1 -3647.8134039898828 3741.008148861113 93.19474487123027
2 -3649.7106714075776 3739.495380893991 89.78470948641338
3 -3650.8086147387826 3736.9212319534827 86.11261721470018
4 -3649.1761702995486 3733.2816649355314 84.10549463598288
5 -3645.9050050218834 3728.574633553853 82.66962853196928
6 -3641.3880929594466 3722.8013169224027 81.41322396295641
7 -3635.4481683243835 3715.9640400514427 80.51587172705898
8 -3628.104642939451 3708.065851819236 79.96120887978466
9 -3619.6225407261077 3699.1107136345445 79.48817290843664
10 -3609.97406137037 3689.1034614676946 79.12940009732488
11 -3599.279061842817 3678.0497500839037 78.77068824108699
12 -3587.4462946445965 3665.956168257549 78.50987361295289
13 -3574.5483341598615 3652.8300872092395 78.28175304937817
14 -3560.4956883929717 3638.6799529540945 78.18426456112275
15 -3545.5100014648556 3623.5152458700695 78.00524440521387
16 -3529.422408492948 3607.346497412943 77.92408891999483
17 -3512.1959255705356 3590.1857674064554 77.98984183592023
18 -3494.0716700295056 3572.045899981198 77.97422995169245
19 -3474.9657578751435 3552.940704721597 77.97494684645328
20 -3454.731006864086 3532.8862286220397 78.15522175795347
21 -3433.4829095672935 3511.900010783675 78.41710121638188
22 -3411.1747313228666 3490.000978649806 78.82624732693893
23 -3388.2513397885705 3467.2091321093694 78.95779232079944
24 -3364.065593876865 3443.546720814113 79.48112693724785
25 -3338.8871579977863 3419.0385844462003 80.15142644841383
26 -3313.230711454745 3393.7099427887692 80.47923133402448
27 -3286.699549947058 3367.5882358558647 80.88868590880656
28 -3259.2262292438627 3340.7038582940113 81.47762905014858
29 -3231.0387285586617 3313.089284808138 82.05055624947641
30 -3202.073909286887 3284.779328710553 82.70541942366567
31 -3172.3858135042165 3255.81124639937 83.42543289515353
32 -3142.111720731798 3226.2246793980858 84.11295866628814
33 -3111.2447930894687 3196.061805167208 84.81701207773918
34 -3080.0416857648224 3165.3671533623856 85.32546759756323
35 -3048.0443780392216 3134.1886211307 86.14424309147876
36 -3015.743777597236 3102.576516178186 86.83273858094996
37 -2983.0782780050517 3070.583380582204 87.50510257715243
38 -2950.0546366943126 3038.264706107264 88.2100694129512
39 -2916.909883743981 3005.678366555823 88.76848281184218
40 -2883.4438251016672 2972.8851821767107 89.44135707504348
41 -2850.0625466516763 2939.9484383782815 89.88589172660498
42 -2816.587047522028 2906.9338295059465 90.34678198391867
43 -2783.003947004302 2873.9096975670145 90.90575056271241
44 -2749.44861131994 2840.946136578165 91.49752525822468
45 -2716.139621109737 2808.114779524584 91.97515841484639
46 -2682.8084778701336 2775.4896194001844 92.68114153005064
47 -2649.8234834108207 2743.145832866632 93.32234945581135
48 -2617.3752034418108 2711.15904177325 93.78383833143899
49 -2585.409201453989 2679.605604694342 94.19640324035304
50 -2553.904569539518 2648.56253827299 94.65796873347185
51 -2522.9544658600034 2618.106752806535 95.15228694653167
52 -2492.58657370433 2588.314699388247 95.72812568391674
53 -2463.2194166888603 2559.262161578383 96.04274488952292
54 -2434.4708811419305 2531.0238685436143 96.55298740168372
55 -2406.6582184977206 2503.672457554365 97.01423905664396
56 -2379.80263479758 2477.278029507928 97.47539471034789
57 -2353.89077141851 2451.9086874423565 98.0179160238465
58 -2329.1181652804835 2427.629502801908 98.5113375214248
59 -2305.4648227559614 2404.5019318000654 99.03710904410389
60 -2283.0864741971036 2382.583724341925 99.49725014482134
61 -2261.938684342407 2361.9285906178334 99.98990627542649
62 -2242.250345728286 2342.585652660881 100.33530693259488
63 -2223.756168714793 2324.5996867089048 100.84351799411162
64 -2206.7570226816597 2308.010661334421 101.25363865276131
65 -2191.2381937621153 2292.8527836117005 101.61458984958503
66 -2177.3921421752125 2279.1550948048666 101.76295262965408
67 -2164.900248660948 2266.9416590433816 102.04141038243347
68 -2153.993062480148 2256.2309607495345 102.23789826938642
69 -2144.6343588743835 2247.0359503703194 102.40159149593589
70 -2136.750311183898 2239.3641868971936 102.61387571329594
71 -2130.375376069648 2233.2176162848427 102.84224021519447
72 -2125.376224829279 2228.5932146310574 103.21698980177847
73 -2122.0708382996754 2225.4829382688204 103.4120999691448
74 -2120.2829048544904 2223.8734798013634 103.59057494687256
75 -2119.9617595279283 2223.746668301698 103.7849087737692
76 -2121.100836094289 2225.079827163557 103.9789910692678
77 -2123.7224034331116 2227.8463098865163 104.12390645340471
78 -2127.6653962348964 2232.015514127453 104.35011789255667
79 -2133.1396433078994 2237.5527343507633 104.41309104286411
80 -2139.9437557722717 2244.419533622547 104.47577785027568
81 -2147.905603720168 2252.574427076212 104.668823356044
82 -2157.030062719593 2261.9733572305427 104.94329451094991
83 -2167.5312251720957 2272.5694248610625 105.03819968896643
84 -2179.147635105205 2284.3132726297395 105.1656375245344
85 -2191.8282675344135 2297.1538887676106 105.32562123319696
86 -2205.504095517143 2311.038530781557 105.53443526441377
87 -2220.1211484790033 2325.913128559853 105.7919800808496
88 -2235.7707927678903 2341.7224798088328 105.95168704094216
89 -2252.462197624816 2358.4104175519833 105.9482199271674
90 -2269.828970633407 2375.9204833448366 106.09151271142933
91 -2287.895966879023 2394.196104063751 106.3001371847283
92 -2306.9162584495616 2413.180236734863 106.26397828530094
93 -2326.457285666831 2432.8157867701225 106.3585011032913
94 -2346.381257102765 2453.046494439321 106.66523733655589
95 -2367.023999236797 2473.8165663369873 106.79256710019033
96 -2388.199659712432 2495.070553157422 106.87089344498997
97 -2409.723330477587 2516.7540845338112 107.03075405622425
98 -2431.7045853608906 2538.813863579463 107.10927821857221
99 -2453.7974219596317 2561.197490464359 107.40006850472719
100 -2476.3101085271055 2583.854138364478 107.54402983737225
101 -2499.06252467908 2606.7343208323564 107.67179615327655
102 -2521.9251552471083 2629.7900011604756 107.8648459133673
103 -2544.9333211600997 2652.9750052242402 108.04168406414057
104 -2567.9609119643187 2676.244965600107 108.28405363578875
105 -2591.3733785209747 2699.5571012490054 108.1837227280311
106 -2614.5576298567203 2722.8696282633755 108.31199840665482
107 -2637.783934690956 2746.142666667401 108.35873197644497
108 -2660.9655478847553 2769.3386386751354 108.37309079037999
109 -2683.985642537907 2792.4219575103757 108.43631497246872
110 -2706.8429294477774 2815.3591266624735 108.51619721469595
111 -2729.3922826823164 2838.1187344418654 108.72645175954929
112 -2751.7336485987607 2860.670733646473 108.93708504771242
113 -2774.035011411858 2882.986827988844 108.95181657698632
114 -2796.1070243668883 2905.0412318527856 108.93420748589672
115 -2817.811385700555 2926.8096201420876 108.99823444153253
116 -2839.239519787509 2948.2693004706084 109.0297806830994
117 -2860.240393964193 2969.399696730299 109.15930276610584
118 -2880.9258738319854 2990.1823719224344 109.25649809044889
119 -2901.296457988702 3010.600993799168 109.30453581046594
120 -2921.2219192623406 3030.6401769459617 109.41825768362075
121 -2940.6072961063373 3050.286189146702 109.67889304036447
122 -2959.6206910899828 3069.5275725588476 109.90688146886473
123 -2978.4478394213756 3088.35434775463 109.9065083332537
124 -2996.5745446413166 3106.75826364265 110.18371900133371
125 -3014.3693430471553 3124.7323386006597 110.3629955535044
126 -3031.614465309952 3142.271159072446 110.65669376249431
127 -3048.4046598994014 3159.3711399094523 110.96648001005096
128 -3064.94865476525 3176.0294773146657 111.08082254941543
129 -3080.870160553521 3192.244792808181 111.3746322546597
130 -3096.4143164190095 3208.0175262381395 111.60320981913011
131 -3111.46845135822 3223.3494008438283 111.88094948560818
132 -3126.296054286944 3238.2425713095236 111.94651702257931
133 -3140.6228101515144 3252.7002300343474 112.07741988283287
134 -3154.6986123692614 3266.727580303778 112.02896793451667
135 -3168.2522884586456 3280.3306361307204 112.07834767207488
136 -3181.208742791831 3293.5161477393544 112.30740494752368
137 -3193.8852461669285 3306.2912340896723 112.40598792274383
138 -3206.0124945257567 3318.663830625273 112.65133609951637
139 -3217.697398692374 3330.6431838836143 112.94578519123952
140 -3229.031410873776 3342.238948565708 113.20753769193203
141 -3240.122472496321 3353.4611041313633 113.33863163504222
142 -3250.7192201519774 3364.319799365591 113.60057921361344
143 -3261.110223836427 3374.8257174539376 113.71549361751046
144 -3271.1428775840855 3384.9895849714094 113.84670738732358
145 -3281.105727840824 3394.8224834608536 113.71675562002984
146 -3290.4551131503854 3404.335779557191 113.88066640680567
147 -3299.626432797333 3413.5403904364935 113.91395763916042
148 -3308.434728554168 3422.4472717083227 114.01254315415453
149 -3316.7437724174706 3431.0669668207934 114.32319440332256
150 -3325.0700077567335 3439.4100237901603 114.34001603342686
151 -3333.0158759039887 3447.4868890800158 114.47101317602728
152 -3340.5422663800136 3455.307368006399 114.76510162638559
153 -3347.935924328792 3462.880996257031 114.94507192823849
154 -3355.1244764767457 3470.216907458106 115.09243098136058
155 -3362.1651523329765 3477.323408062243 115.15825572926629
156 -3369.0005970871243 3484.2082519677483 115.20765488062393
157 -3375.3936092423587 3490.879105699254 115.48549645689532
158 -3381.792081269836 3497.3431373582807 115.55105608844457
159 -3388.1208760265795 3503.607035762678 115.48615973609864
160 -3393.9952695235975 3509.677338448176 115.68206892457869
161 -3399.9268283093297 3515.5602921193895 115.63346381006009
162 -3405.5627817029203 3521.261863278632 115.69908157571184
163 -3411.006695797571 3526.7876860584556 115.78099026088499
164 -3416.264723118285 3532.1437875226397 115.87906440435434
165 -3421.2122331542096 3537.336378639447 116.12414548523721
166 -3426.2467540760704 3542.371035353076 116.1242812770055
167 -3430.9167335848565 3547.2533774972185 116.3366439123623
168 -3435.7997000259566 3551.9897153560983 116.1900153301418
169 -3440.281987326638 3556.586611808605 116.30462448196708
170 -3444.729280981365 3561.0507634018404 116.3214824204754
171 -3449.0513850974094 3565.3894767818756 116.33809168446626
172 -3453.0756078474155 3569.610025752962 116.5344179055467
173 -3457.005680045446 3573.7200624514867 116.71438240604077
174 -3460.752280474696 3577.7279006411904 116.97562016649431
175 -3464.518409231809 3581.6412151159398 117.12280588413056
176 -3468.3123178343994 3585.4681962419018 117.1558784075023
177 -3471.9308388946183 3589.2178470181448 117.28700812352655
178 -3475.3836916176956 3592.8995085704396 117.51581695274304
179 -3479.0060835851878 3596.522561171327 117.51647758613944
180 -3482.399580123846 3600.0960464687155 117.69646634486948
181 -3485.80159889688 3603.629012290578 117.82741339369804
182 -3489.123440768258 3607.130977631316 118.00753686305784
183 -3492.668577723351 3610.6113920346534 117.94281431130237
184 -3495.923642726232 3614.0788714417267 118.15522871549446
185 -3499.435118350997 3617.5419433279617 118.10682497696439
186 -3502.8036868778736 3621.008837155699 118.20515027782567
187 -3506.281583261408 3624.4871552473537 118.20557198594602
188 -3509.550723298403 3627.9848012692514 118.4340779708481
189 -3512.9605640083064 3631.509159233339 118.54859522503227
190 -3516.5501380577093 3635.066284359439 118.51614630172945
191 -3519.9985922380597 3638.661828075946 118.66323583788576
192 -3523.4255618166285 3642.3010679221748 118.87550610554636
193 -3526.868599221025 3645.988896977322 119.12029775629735
194 -3530.364412778309 3649.7295555425308 119.36514276422143
195 -3534.0309013919 3653.526658032117 119.49575664021701
196 -3537.6590839872893 3657.3833338700897 119.72424988280078
197 -3541.479642492809 3661.301879650004 119.82223715719492
198 -3545.2500958027344 3665.2843374834038 120.03424168066961
199 -3549.135187475024 3669.3323754960766 120.19718802105281
200 -3553.184996811957 3673.4472983872524 120.26230157529561
201 -3557.2860910310087 3677.6299843459187 120.34389331490974
202 -3561.47162309448 3681.8807339254026 120.40911083092277
203 -3565.758310545163 3686.199942554267 120.4416320091043
204 -3569.9014267304374 3690.5876315674586 120.68620483702114
205 -3574.243528431434 3695.043893677239 120.80036524580512
206 -3578.7198160659505 3699.5691423492926 120.8493262833423
207 -3583.2163001822987 3704.1633388994514 120.947038717153
208 -3587.7823065635353 3708.8270968593015 121.04479029576609
209 -3592.418457453629 3713.5609759965478 121.14251854291852
210 -3597.140719085263 3718.36475176691 121.22403268164754
211 -3601.868162451126 3723.2388259075556 121.37066345642974
212 -3606.5683399639915 3728.1839014787993 121.61556151480781
213 -3611.405785682925 3733.2008867984405 121.79510111551515
214 -3616.283679128965 3738.290938442158 122.00725931319309
215 -3621.26815813579 3743.454865625167 122.18670748937643
216 -3626.425253265247 3748.6935120609987 122.2682587957516
217 -3631.6426745078193 3754.0089405418903 122.36626603407069
218 -3637.036540228959 3759.4027988889156 122.3662586599566
219 -3642.3141447408802 3764.876365016708 122.56222027582793
220 -3648.016441252671 3770.431795163912 122.41535391124101
221 -3653.4270499868526 3776.07087100635 122.64382101949732
222 -3659.069529355661 3781.795011309945 122.72548195428378
223 -3664.7007574378417 3787.6056964569334 122.9049390190914
224 -3670.3220071342485 3793.504364365929 123.18235723168064
225 -3676.065277339369 3799.4923951691794 123.42711782981061
226 -3682.078323020034 3805.5708633766017 123.49254035656745
227 -3687.986631864269 3811.74031980569 123.75368794142074
228 -3694.0840546765094 3818.0010087048113 123.91695402830187
229 -3700.305604303187 3824.352887021552 124.04728271836501
230 -3706.6339493475693 3830.795414806046 124.16146545847687
231 -3712.905098434529 3837.327483184167 124.42238474963804
232 -3719.3130937427068 3843.9473945674276 124.63430082472084
233 -3725.8069540572096 3850.653087765098 124.84613370788813
234 -3732.253307303489 3857.441816375683 125.18850907219434
235 -3738.8450836784864 3864.310560796048 125.4654771175615
236 -3745.496205178364 3871.2551318892174 125.75892671085356
237 -3752.4298164153274 3878.2699276770677 125.84011126174023
238 -3759.346507305186 3885.349404994125 126.00289768893919
239 -3766.2238080097873 3892.487372751296 126.26356474150829
240 -3773.446300703975 3899.6767727408455 126.23047203687045
241 -3780.3376510066187 3906.9101707414293 126.57251973481064
242 -3787.3630416530586 3914.179630172136 126.81658851907768
243 -3794.5788195333876 3921.4762182438812 126.89739871049399
244 -3801.7794179405564 3928.790283625549 127.01086568499346
245 -3808.9062974795793 3936.1121498001894 127.20585232061005
246 -3816.1611734253765 3943.431687647759 127.27051422238274
247 -3823.435864165927 3950.7381011962557 127.3022370303288
248 -3830.5065726916077 3958.020077364935 127.5135046733268
249 -3837.5903368532827 3965.266076992154 127.6757401388715
250 -3844.7242357715563 3972.464507739749 127.7402719681926
251 -3851.6684065178774 3979.6037240746346 127.93531755675723
252 -3858.6231349577133 3986.6719670496227 128.0488320919093
253 -3865.4786003521876 3993.657018289291 128.17841793710346
254 -3872.25445914881 4000.5463323935846 128.29187324477434
255 -3878.9226166289486 4007.3279589790286 128.40534235007988
256 -3885.4059799610145 4013.989939035849 128.58395907483444
257 -3891.643145473429 4020.5200811682107 128.87693569478188
258 -3897.704422449256 4026.906953348982 129.20253089972562
259 -3903.610856520776 4033.1390438243425 129.52818730356637
260 -3909.5959967896974 4039.204980031695 129.60898324199724
261 -3915.534754749665 4045.0940601079137 129.5593053582487
262 -3921.0251637941888 4050.795857953078 129.77069415888946
263 -3926.400137924796 4056.3005469260906 129.9004090012942
264 -3931.601318732197 4061.59902949826 129.99771076606308
265 -3936.440531839106 4066.6823286206495 130.24179678154437
266 -3941.1702860019695 4071.5421966173985 130.37191061542867
267 -3945.4573389189623 4076.1713042526785 130.71396533371595
268 -3949.6700099951127 4080.5629381104013 130.89292811528847
269 -3953.704550429089 4084.711151645303 131.0066012162137
270 -3957.4741049064046 4088.610923228197 131.1368183217925
271 -3960.9915067963757 4092.258403496816 131.26689670044087
272 -3964.3188966750768 4095.6506214195174 131.33172474444066
273 -3967.241876276049 4098.785487156722 131.54361088067319
274 -3969.889961373754 4101.661919803971 131.77195843021664
275 -3972.39402909323 4104.280122320478 131.88609322724793
276 -3974.6902039722027 4106.641534788716 131.9513308165129
277 -3976.617429479206 4108.748388187474 132.130958708268
278 -3978.3589130744645 4110.604226657626 132.24531358316173
279 -3979.821014673257 4112.213465267648 132.39245059439077
280 -3980.895355282192 4113.581649281085 132.68629399889284
281 -3981.816500366011 4114.715226269113 132.89872590310247
282 -3982.5590405400844 4115.621473878805 133.0624333387203
283 -3983.1153842774356 4116.309083164211 133.19369888677508
284 -3983.5436192954426 4116.786746469201 133.2431271737583
285 -3983.7549629534124 4117.064041365852 133.30907841243953
286 -3983.385296094946 4117.151897682439 133.76660158749314
287 -3983.0656517508137 4117.061221456721 133.99556970590746
288 -3982.448297720068 4116.803523992908 134.35522627284047
289 -3981.8879886878594 4116.390652966533 134.50266427867354
290 -3981.1843712414966 4115.834498056014 134.6501268145174
291 -3980.430998801073 4115.147022858469 134.7160240573964
292 -3979.5745822849617 4114.340369599616 134.76578731465423
293 -3978.4648317261026 4113.42708963467 134.96225790856712
294 -3977.342238434441 4112.419325141287 135.07708670684607
295 -3976.1042274140486 4111.3287312027705 135.22450378872213
296 -3974.778010555487 4110.166192498794 135.38818194330628
297 -3973.309028368786 4108.9426519170775 135.63362354829113
298 -3971.887594438124 4107.66853396089 135.78093952276595
299 -3970.359656132232 4106.353267360415 135.99361122818374
300 -3968.783940342972 4105.006495321084 136.22255497811196
301 -3966.9574678717713 4103.637157603436 136.67968973166475
302 -3965.45884460177 4102.253029493781 136.79418489201052
303 -3963.9036167431364 4100.861199616186 136.95758287304994
304 -3962.331743520414 4099.468956577373 137.13721305695927
305 -3960.570169197977 4098.083029862127 137.51286066414914
306 -3959.1138797003714 4096.70862187453 137.5947421741585
307 -3957.5752934722364 4095.349691895349 137.77439842311296
308 -3956.023342424003 4094.0099200993345 137.9865776753312
309 -3954.559467750377 4092.6931064084592 138.13363865808233
310 -3953.1543065666206 4091.402185117627 138.24787855100664
311 -3951.6959423859457 4090.1396110150663 138.44366862912022
312 -3950.235062858153 4088.9072759279416 138.6722130697886
313 -3948.7896482390624 4087.7067908158024 138.91714257673985
314 -3947.4104589755175 4086.539594160753 139.12913518523553
315 -3946.1469268043966 4085.4065100845683 139.2595832801718
316 -3944.8360354048086 4084.3077712709987 139.4717358661897
317 -3943.494339562289 4083.243470688488 139.74913112619913
318 -3942.236571631493 4082.214064397911 139.97749276641787
319 -3941.1772897964615 4081.2197365640463 140.04244676758503
320 -3940.0220434148287 4080.260162584274 140.2381191694455
321 -3938.86817224321 4079.3346246964575 140.46645245324706
322 -3937.9108086303095 4078.442466559476 140.53165792916673
323 -3936.7252092622293 4077.5831952068743 140.85798594464498
324 -3935.7352374226884 4076.7561602427563 141.0209228200677
325 -3934.7601098348273 4075.9604617382956 141.20035190346815
326 -3933.7827960333943 4075.1950376928166 141.41224165942245
327 -3932.8508176782743 4074.4586605485547 141.60784287028042
328 -3931.995303344746 4073.7499751756272 141.75467183088134
329 -3931.215227641478 4073.0675842769188 141.85235663544094
330 -3930.329693549588 4072.4104510779794 142.08075752839127
